   #time(sec)              deltag(m/s^2)
   0.0000000e+00   0.0000000e+00
   6.0000000e+01   8.2856868e-11
   1.2000000e+02   1.6592937e-10
   1.8000000e+02   2.4808892e-10
   2.4000000e+02   3.2816624e-10
   3.0000000e+02   4.0497048e-10
   3.6000000e+02   4.7730381e-10
   4.2000000e+02   5.4399700e-10
   4.8000000e+02   6.0392158e-10
   5.4000000e+02   6.5603051e-10
   6.0000000e+02   6.9938671e-10
   6.6000000e+02   7.3318652e-10
   7.2000000e+02   7.5679377e-10
   7.8000000e+02   7.6975761e-10
   8.4000000e+02   7.7183178e-10
   9.0000000e+02   7.6298289e-10
   9.6000000e+02   7.4339128e-10
   1.0200000e+03   7.1344370e-10
   1.0800000e+03   6.7372115e-10
   1.1400000e+03   6.2497299e-10
   1.2000000e+03   5.6809528e-10
   1.2600000e+03   5.0410027e-10
   1.3200000e+03   4.3408438e-10
   1.3800000e+03   3.5920402e-10
   1.4400000e+03   2.8064284e-10
   1.5000000e+03   1.9959077e-10
   1.5600000e+03   1.1722058e-10
   1.6200000e+03   3.4667652e-11
   1.6800000e+03  -4.6978109e-11
   1.7400000e+03  -1.2669225e-10
   1.8000000e+03  -2.0351585e-10
   1.8600000e+03  -2.7656807e-10
   1.9200000e+03  -3.4505149e-10
   1.9800000e+03  -4.0824340e-10
   2.0400000e+03  -4.6551102e-10
   2.1000000e+03  -5.1630180e-10
   2.1600000e+03  -5.6014301e-10
   2.2200000e+03  -5.9664448e-10
   2.2800000e+03  -6.2548885e-10
   2.3400000e+03  -6.4643761e-10
   2.4000000e+03  -6.5932198e-10
   2.4600000e+03  -6.6404452e-10
   2.5200000e+03  -6.6057732e-10
   2.5800000e+03  -6.4896143e-10
   2.6400000e+03  -6.2930612e-10
   2.7000000e+03  -6.0179301e-10
   2.7600000e+03  -5.6667138e-10
   2.8200000e+03  -5.2426847e-10
   2.8800000e+03  -4.7498332e-10
   2.9400000e+03  -4.1929592e-10
   3.0000000e+03  -3.5776446e-10
   3.0600000e+03  -2.9102732e-10
   3.1200000e+03  -2.1980309e-10
   3.1800000e+03  -1.4489339e-10
   3.2400000e+03  -6.7170514e-11
   3.3000000e+03   1.2413530e-11
   3.3600000e+03   9.2848111e-11
   3.4200000e+03   1.7306346e-10
   3.4800000e+03   2.5195362e-10
   3.5400000e+03   3.2837941e-10
   3.6000000e+03   4.0119569e-10
   3.6600000e+03   4.6927281e-10
   3.7200000e+03   5.3151870e-10
   3.7800000e+03   5.8690359e-10
   3.8400000e+03   6.3449154e-10
   3.9000000e+03   6.7346214e-10
   3.9600000e+03   7.0313765e-10
   4.0200000e+03   7.2300256e-10
   4.0800000e+03   7.3271977e-10
   4.1400000e+03   7.3214300e-10
   4.2000000e+03   7.2131795e-10
   4.2600000e+03   7.0048169e-10
   4.3200000e+03   6.7005163e-10
   4.3800000e+03   6.3061391e-10
   4.4400000e+03   5.8289780e-10
   4.5000000e+03   5.2776084e-10
   4.5600000e+03   4.6615934e-10
   4.6200000e+03   3.9912368e-10
   4.6800000e+03   3.2773135e-10
   4.7400000e+03   2.5309085e-10
   4.8000000e+03   1.7630909e-10
   4.8600000e+03   9.8485902e-11
   4.9200000e+03   2.0681638e-11
   4.9800000e+03  -5.6082458e-11
   5.0400000e+03  -1.3084546e-10
   5.1000000e+03  -2.0270564e-10
   5.1600000e+03  -2.7084053e-10
   5.2200000e+03  -3.3449966e-10
   5.2800000e+03  -3.9301139e-10
   5.3400000e+03  -4.4578560e-10
   5.4000000e+03  -4.9231075e-10
   5.4600000e+03  -5.3215581e-10
   5.5200000e+03  -5.6496879e-10
   5.5800000e+03  -5.9046986e-10
   5.6400000e+03  -6.0845469e-10
   5.7000000e+03  -6.1878840e-10
   5.7600000e+03  -6.2140705e-10
   5.8200000e+03  -6.1631421e-10
   5.8800000e+03  -6.0358128e-10
   5.9400000e+03  -5.8334856e-10
   6.0000000e+03  -5.5582355e-10
   6.0600000e+03  -5.2128619e-10
   6.1200000e+03  -4.8008712e-10
   6.1800000e+03  -4.3265129e-10
   6.2400000e+03  -3.7947709e-10
   6.3000000e+03  -3.2114098e-10
   6.3600000e+03  -2.5829506e-10
   6.4200000e+03  -1.9165992e-10
   6.4800000e+03  -1.2203671e-10
   6.5400000e+03  -5.0281191e-11
   6.6000000e+03   2.2684273e-11
   6.6600000e+03   9.5895326e-11
   6.7200000e+03   1.6834888e-10
   6.7800000e+03   2.3902762e-10
   6.8400000e+03   3.0690426e-10
   6.9000000e+03   3.7097395e-10
   6.9600000e+03   4.3027060e-10
   7.0200000e+03   4.8388175e-10
   7.0800000e+03   5.3097781e-10
   7.1400000e+03   5.7083018e-10
   7.2000000e+03   6.0282209e-10
   7.2600000e+03   6.2647238e-10
   7.3200000e+03   6.4143804e-10
   7.3800000e+03   6.4752642e-10
   7.4400000e+03   6.4469527e-10
   7.5000000e+03   6.3305246e-10
   7.5600000e+03   6.1285047e-10
   7.6200000e+03   5.8447922e-10
   7.6800000e+03   5.4845399e-10
   7.7400000e+03   5.0540200e-10
   7.8000000e+03   4.5604727e-10
   7.8600000e+03   4.0119853e-10
   7.9200000e+03   3.4172117e-10
   7.9800000e+03   2.7853522e-10
   8.0400000e+03   2.1258328e-10
   8.1000000e+03   1.4482281e-10
   8.1600000e+03   7.6208902e-11
   8.2200000e+03   7.6723244e-12
   8.2800000e+03  -5.9884693e-11
   8.3400000e+03  -1.2560003e-10
   8.4000000e+03  -1.8867019e-10
   8.4600000e+03  -2.4835243e-10
   8.5200000e+03  -3.0396766e-10
   8.5800000e+03  -3.5491085e-10
   8.6400000e+03  -4.0065012e-10
   8.7000000e+03  -4.4072676e-10
   8.7600000e+03  -4.7475865e-10
   8.8200000e+03  -5.0243581e-10
   8.8800000e+03  -5.2352092e-10
   8.9400000e+03  -5.3784627e-10
   9.0000000e+03  -5.4531355e-10
   9.0600000e+03  -5.4589091e-10
   9.1200000e+03  -5.3961333e-10
   9.1800000e+03  -5.2658173e-10
   9.2400000e+03  -5.0696208e-10
   9.3000000e+03  -4.8098753e-10
   9.3600000e+03  -4.4895815e-10
   9.4200000e+03  -4.1124392e-10
   9.4800000e+03  -3.6828078e-10
   9.5400000e+03  -3.2057485e-10
   9.6000000e+03  -2.6870245e-10
   9.6600000e+03  -2.1329964e-10
   9.7200000e+03  -1.5506997e-10
   9.7800000e+03  -9.4765544e-11
   9.8400000e+03  -3.3187106e-11
   9.9000000e+03   2.8828016e-11
   9.9600000e+03   9.0423807e-11
   1.0020000e+04   1.5073403e-10
   1.0080000e+04   2.0890490e-10
   1.0140000e+04   2.6410725e-10
   1.0200000e+04   3.1555388e-10
   1.0260000e+04   3.6252234e-10
   1.0320000e+04   4.0435842e-10
   1.0380000e+04   4.4049743e-10
   1.0440000e+04   4.7046836e-10
   1.0500000e+04   4.9390158e-10
   1.0560000e+04   5.1053278e-10
   1.0620000e+04   5.2020251e-10
   1.0680000e+04   5.2285480e-10
   1.0740000e+04   5.1853409e-10
   1.0800000e+04   5.0738099e-10
   1.0860000e+04   4.8962689e-10
   1.0920000e+04   4.6558885e-10
   1.0980000e+04   4.3566458e-10
   1.1040000e+04   4.0032516e-10
   1.1100000e+04   3.6010975e-10
   1.1160000e+04   3.1561758e-10
   1.1220000e+04   2.6749827e-10
   1.1280000e+04   2.1644600e-10
   1.1340000e+04   1.6318714e-10
   1.1400000e+04   1.0846595e-10
   1.1460000e+04   5.3041143e-11
   1.1520000e+04  -2.3359368e-12
   1.1580000e+04  -5.6927607e-11
   1.1640000e+04  -1.1002243e-10
   1.1700000e+04  -1.6094540e-10
   1.1760000e+04  -2.0906683e-10
   1.1820000e+04  -2.5380965e-10
   1.1880000e+04  -2.9465732e-10
   1.1940000e+04  -3.3115218e-10
   1.2000000e+04  -3.6290470e-10
   1.2060000e+04  -3.8958969e-10
   1.2120000e+04  -4.1095076e-10
   1.2180000e+04  -4.2679556e-10
   1.2240000e+04  -4.3699871e-10
   1.2300000e+04  -4.4149820e-10
   1.2360000e+04  -4.4029586e-10
   1.2420000e+04  -4.3345595e-10
   1.2480000e+04  -4.2110497e-10
   1.2540000e+04  -4.0343140e-10
   1.2600000e+04  -3.8068482e-10
   1.2660000e+04  -3.5317788e-10
   1.2720000e+04  -3.2128322e-10
   1.2780000e+04  -2.8543269e-10
   1.2840000e+04  -2.4611702e-10
   1.2900000e+04  -2.0387934e-10
   1.2960000e+04  -1.5931027e-10
   1.3020000e+04  -1.1304158e-10
   1.3080000e+04  -6.5735505e-11
   1.3140000e+04  -1.8071994e-11
   1.3200000e+04   2.9260689e-11
   1.3260000e+04   7.5585088e-11
   1.3320000e+04   1.2024427e-10
   1.3380000e+04   1.6261981e-10
   1.3440000e+04   2.0214466e-10
   1.3500000e+04   2.3831282e-10
   1.3560000e+04   2.7068602e-10
   1.3620000e+04   2.9890307e-10
   1.3680000e+04   3.2268055e-10
   1.3740000e+04   3.4181092e-10
   1.3800000e+04   3.5615826e-10
   1.3860000e+04   3.6565710e-10
   1.3920000e+04   3.7030231e-10
   1.3980000e+04   3.7014465e-10
   1.4040000e+04   3.6528460e-10
   1.4100000e+04   3.5586723e-10
   1.4160000e+04   3.4207853e-10
   1.4220000e+04   3.2414315e-10
   1.4280000e+04   3.0232315e-10
   1.4340000e+04   2.7691899e-10
   1.4400000e+04   2.4826652e-10
   1.4460000e+04   2.1674033e-10
   1.4520000e+04   1.8274937e-10
   1.4580000e+04   1.4673878e-10
   1.4640000e+04   1.0918111e-10
   1.4700000e+04   7.0576469e-11
   1.4760000e+04   3.1440114e-11
   1.4820000e+04  -7.6985617e-12
   1.4880000e+04  -4.6311955e-11
   1.4940000e+04  -8.3878550e-11
   1.5000000e+04  -1.1989718e-10
   1.5060000e+04  -1.5388984e-10
   1.5120000e+04  -1.8541374e-10
   1.5180000e+04  -2.1406716e-10
   1.5240000e+04  -2.3949713e-10
   1.5300000e+04  -2.6139839e-10
   1.5360000e+04  -2.7952173e-10
   1.5420000e+04  -2.9367302e-10
   1.5480000e+04  -3.0371554e-10
   1.5540000e+04  -3.0956956e-10
   1.5600000e+04  -3.1121316e-10
   1.5660000e+04  -3.0868102e-10
   1.5720000e+04  -3.0206441e-10
   1.5780000e+04  -2.9151016e-10
   1.5840000e+04  -2.7722053e-10
   1.5900000e+04  -2.5944998e-10
   1.5960000e+04  -2.3850500e-10
   1.6020000e+04  -2.1474057e-10
   1.6080000e+04  -1.8855590e-10
   1.6140000e+04  -1.6038810e-10
   1.6200000e+04  -1.3070703e-10
   1.6260000e+04  -1.0000533e-10
   1.6320000e+04  -6.8786357e-11
   1.6380000e+04  -3.7556538e-11
   1.6440000e+04  -6.8106511e-12
   1.6500000e+04   2.2983919e-11
   1.6560000e+04   5.1391218e-11
   1.6620000e+04   7.8025194e-11
   1.6680000e+04   1.0255485e-10
   1.6740000e+04   1.2470939e-10
   1.6800000e+04   1.4428171e-10
   1.6860000e+04   1.6112811e-10
   1.6920000e+04   1.7516582e-10
   1.6980000e+04   1.8636525e-10
   1.7040000e+04   1.9474448e-10
   1.7100000e+04   2.0035844e-10
   1.7160000e+04   2.0329175e-10
   1.7220000e+04   2.0364959e-10
   1.7280000e+04   2.0155010e-10
   1.7340000e+04   1.9711911e-10
   1.7400000e+04   1.9048593e-10
   1.7460000e+04   1.8178106e-10
   1.7520000e+04   1.7113634e-10
   1.7580000e+04   1.5868634e-10
   1.7640000e+04   1.4457049e-10
   1.7700000e+04   1.2893695e-10
   1.7760000e+04   1.1194567e-10
   1.7820000e+04   9.3772992e-11
   1.7880000e+04   7.4613325e-11
   1.7940000e+04   5.4681215e-11
   1.8000000e+04   3.4213247e-11
   1.8060000e+04   1.3462749e-11
   1.8120000e+04  -7.2978938e-12
   1.8180000e+04  -2.7785682e-11
   1.8240000e+04  -4.7709862e-11
   1.8300000e+04  -6.6780482e-11
   1.8360000e+04  -8.4714155e-11
   1.8420000e+04  -1.0123965e-10
   1.8480000e+04  -1.1610816e-10
   1.8540000e+04  -1.2909695e-10
   1.8600000e+04  -1.4001505e-10
   1.8660000e+04  -1.4870900e-10
   1.8720000e+04  -1.5506559e-10
   1.8780000e+04  -1.5901441e-10
   1.8840000e+04  -1.6053080e-10
   1.8900000e+04  -1.5963597e-10
   1.8960000e+04  -1.5639755e-10
   1.9020000e+04  -1.5092921e-10
   1.9080000e+04  -1.4338927e-10
   1.9140000e+04  -1.3397806e-10
   1.9200000e+04  -1.2293484e-10
   1.9260000e+04  -1.1053371e-10
   1.9320000e+04  -9.7076457e-11
   1.9380000e+04  -8.2886820e-11
   1.9440000e+04  -6.8300821e-11
   1.9500000e+04  -5.3656877e-11
   1.9560000e+04  -3.9286596e-11
   1.9620000e+04  -2.5502105e-11
   1.9680000e+04  -1.2586362e-11
   1.9740000e+04  -7.8302322e-13
   1.9800000e+04   9.7117147e-12
   1.9860000e+04   1.8755042e-11
   1.9920000e+04   2.6260776e-11
   1.9980000e+04   3.2199683e-11
   2.0040000e+04   3.6597040e-11
   2.0100000e+04   3.9527031e-11
   2.0160000e+04   4.1105675e-11
   2.0220000e+04   4.1481619e-11
   2.0280000e+04   4.0826543e-11
   2.0340000e+04   3.9324886e-11
   2.0400000e+04   3.7164357e-11
   2.0460000e+04   3.4527200e-11
   2.0520000e+04   3.1582829e-11
   2.0580000e+04   2.8481927e-11
   2.0640000e+04   2.5352205e-11
   2.0700000e+04   2.2295833e-11
   2.0760000e+04   1.9388465e-11
   2.0820000e+04   1.6679777e-11
   2.0880000e+04   1.4195366e-11
   2.0940000e+04   1.1939809e-11
   2.1000000e+04   9.9007395e-12
   2.1060000e+04   8.0535420e-12
   2.1120000e+04   6.3665878e-12
   2.1180000e+04   4.8064760e-12
   2.1240000e+04   3.3431178e-12
   2.1300000e+04   1.9541562e-12
   2.1360000e+04   6.2856934e-13
   2.1420000e+04  -6.3088730e-13
   2.1480000e+04  -1.8067140e-12
   2.1540000e+04  -2.8669072e-12
   2.1600000e+04  -3.7668975e-12
   2.1660000e+04  -4.4524260e-12
   2.1720000e+04  -4.8639165e-12
   2.1780000e+04  -4.9410890e-12
   2.1840000e+04  -4.6283921e-12
   2.1900000e+04  -3.8804906e-12
   2.1960000e+04  -2.6674929e-12
   2.2020000e+04  -9.7944760e-13
   2.2080000e+04   1.1694944e-12
   2.2140000e+04   3.7382004e-12
   2.2200000e+04   6.6567336e-12
   2.2260000e+04   9.8258285e-12
   2.2320000e+04   1.3117835e-11
   2.2380000e+04   1.6379178e-11
   2.2440000e+04   1.9434412e-11
   2.2500000e+04   2.2091881e-11
   2.2560000e+04   2.4150897e-11
   2.2620000e+04   2.5410241e-11
   2.2680000e+04   2.5677617e-11
   2.2740000e+04   2.4779828e-11
   2.2800000e+04   2.2572700e-11
   2.2860000e+04   1.8950593e-11
   2.2920000e+04   1.3854017e-11
   2.2980000e+04   7.2765398e-12
   2.3040000e+04  -7.3274602e-13
   2.3100000e+04  -1.0067975e-11
   2.3160000e+04  -2.0568922e-11
   2.3220000e+04  -3.2026042e-11
   2.3280000e+04  -4.4187874e-11
   2.3340000e+04  -5.6770268e-11
   2.3400000e+04  -6.9467040e-11
   2.3460000e+04  -8.1960473e-11
   2.3520000e+04  -9.3931944e-11
   2.3580000e+04  -1.0507166e-10
   2.3640000e+04  -1.1508826e-10
   2.3700000e+04  -1.2371602e-10
   2.3760000e+04  -1.3072037e-10
   2.3820000e+04  -1.3590409e-10
   2.3880000e+04  -1.3910986e-10
   2.3940000e+04  -1.4022321e-10
   2.4000000e+04  -1.3917366e-10
   2.4060000e+04  -1.3593584e-10
   2.4120000e+04  -1.3052811e-10
   2.4180000e+04  -1.2301261e-10
   2.4240000e+04  -1.1349207e-10
   2.4300000e+04  -1.0210707e-10
   2.4360000e+04  -8.9032925e-11
   2.4420000e+04  -7.4473507e-11
   2.4480000e+04  -5.8657598e-11
   2.4540000e+04  -4.1830609e-11
   2.4600000e+04  -2.4248704e-11
   2.4660000e+04  -6.1735286e-12
   2.4720000e+04   1.2137639e-11
   2.4780000e+04   3.0434860e-11
   2.4840000e+04   4.8480910e-11
   2.4900000e+04   6.6055804e-11
   2.4960000e+04   8.2958798e-11
   2.5020000e+04   9.9008023e-11
   2.5080000e+04   1.1404031e-10
   2.5140000e+04   1.2790817e-10
   2.5200000e+04   1.4047743e-10
   2.5260000e+04   1.5162247e-10
   2.5320000e+04   1.6122273e-10
   2.5380000e+04   1.6915869e-10
   2.5440000e+04   1.7530997e-10
   2.5500000e+04   1.7955283e-10
   2.5560000e+04   1.8176103e-10
   2.5620000e+04   1.8180737e-10
   2.5680000e+04   1.7956796e-10
   2.5740000e+04   1.7492743e-10
   2.5800000e+04   1.6778644e-10
   2.5860000e+04   1.5807080e-10
   2.5920000e+04   1.4573901e-10
   2.5980000e+04   1.3079266e-10
   2.6040000e+04   1.1328510e-10
   2.6100000e+04   9.3324873e-11
   2.6160000e+04   7.1083914e-11
   2.6220000e+04   4.6795742e-11
   2.6280000e+04   2.0756143e-11
   2.6340000e+04  -6.6842684e-12
   2.6400000e+04  -3.5125644e-11
   2.6460000e+04  -6.4129375e-11
   2.6520000e+04  -9.3228775e-11
   2.6580000e+04  -1.2194354e-10
   2.6640000e+04  -1.4979046e-10
   2.6700000e+04  -1.7629438e-10
   2.6760000e+04  -2.0099960e-10
   2.6820000e+04  -2.2348002e-10
   2.6880000e+04  -2.4334479e-10
   2.6940000e+04  -2.6024499e-10
   2.7000000e+04  -2.7387818e-10
   2.7060000e+04  -2.8399225e-10
   2.7120000e+04  -2.9038593e-10
   2.7180000e+04  -2.9291231e-10
   2.7240000e+04  -2.9147870e-10
   2.7300000e+04  -2.8604814e-10
   2.7360000e+04  -2.7663919e-10
   2.7420000e+04  -2.6332704e-10
   2.7480000e+04  -2.4624258e-10
   2.7540000e+04  -2.2557255e-10
   2.7600000e+04  -2.0155709e-10
   2.7660000e+04  -1.7448945e-10
   2.7720000e+04  -1.4471076e-10
   2.7780000e+04  -1.1260694e-10
   2.7840000e+04  -7.8600369e-11
   2.7900000e+04  -4.3147355e-11
   2.7960000e+04  -6.7267173e-12
   2.8020000e+04   3.0168086e-11
   2.8080000e+04   6.7037998e-11
   2.8140000e+04   1.0338729e-10
   2.8200000e+04   1.3873279e-10
   2.8260000e+04   1.7260933e-10
   2.8320000e+04   2.0457597e-10
   2.8380000e+04   2.3422359e-10
   2.8440000e+04   2.6117431e-10
   2.8500000e+04   2.8508319e-10
   2.8560000e+04   3.0564080e-10
   2.8620000e+04   3.2256941e-10
   2.8680000e+04   3.3562519e-10
   2.8740000e+04   3.4459681e-10
   2.8800000e+04   3.4930624e-10
   2.8860000e+04   3.4961077e-10
   2.8920000e+04   3.4540650e-10
   2.8980000e+04   3.3663342e-10
   2.9040000e+04   3.2328178e-10
   2.9100000e+04   3.0539689e-10
   2.9160000e+04   2.8308961e-10
   2.9220000e+04   2.5653756e-10
   2.9280000e+04   2.2599341e-10
   2.9340000e+04   1.9178407e-10
   2.9400000e+04   1.5431017e-10
   2.9460000e+04   1.1404178e-10
   2.9520000e+04   7.1513380e-11
   2.9580000e+04   2.7310589e-11
   2.9640000e+04  -1.7942405e-11
   2.9700000e+04  -6.3594209e-11
   2.9760000e+04  -1.0898050e-10
   2.9820000e+04  -1.5344171e-10
   2.9880000e+04  -1.9633262e-10
   2.9940000e+04  -2.3703532e-10
   3.0000000e+04  -2.7497012e-10
   3.0060000e+04  -3.0960226e-10
   3.0120000e+04  -3.4044727e-10
   3.0180000e+04  -3.6707764e-10
   3.0240000e+04  -3.8912360e-10
   3.0300000e+04  -4.0627416e-10
   3.0360000e+04  -4.1828037e-10
   3.0420000e+04  -4.2495357e-10
   3.0480000e+04  -4.2616636e-10
   3.0540000e+04  -4.2185301e-10
   3.0600000e+04  -4.1200957e-10
   3.0660000e+04  -3.9669533e-10
   3.0720000e+04  -3.7603229e-10
   3.0780000e+04  -3.5020857e-10
   3.0840000e+04  -3.1947544e-10
   3.0900000e+04  -2.8415176e-10
   3.0960000e+04  -2.4461940e-10
   3.1020000e+04  -2.0132551e-10
   3.1080000e+04  -1.5477782e-10
   3.1140000e+04  -1.0553895e-10
   3.1200000e+04  -5.4222894e-11
   3.1260000e+04  -1.4863424e-12
   3.1320000e+04   5.1980274e-11
   3.1380000e+04   1.0546301e-10
   3.1440000e+04   1.5823551e-10
   3.1500000e+04   2.0957059e-10
   3.1560000e+04   2.5875312e-10
   3.1620000e+04   3.0508864e-10
   3.1680000e+04   3.4791533e-10
   3.1740000e+04   3.8661538e-10
   3.1800000e+04   4.2061995e-10
   3.1860000e+04   4.4941765e-10
   3.1920000e+04   4.7256147e-10
   3.1980000e+04   4.8967280e-10
   3.2040000e+04   5.0044931e-10
   3.2100000e+04   5.0466628e-10
   3.2160000e+04   5.0218439e-10
   3.2220000e+04   4.9295336e-10
   3.2280000e+04   4.7701677e-10
   3.2340000e+04   4.5451555e-10
   3.2400000e+04   4.2569024e-10
   3.2460000e+04   3.9088237e-10
   3.2520000e+04   3.5053176e-10
   3.2580000e+04   3.0517015e-10
   3.2640000e+04   2.5541676e-10
   3.2700000e+04   2.0196537e-10
   3.2760000e+04   1.4556772e-10
   3.2820000e+04   8.7023943e-11
   3.2880000e+04   2.7166647e-11
   3.2940000e+04  -3.3165283e-11
   3.3000000e+04  -9.3133512e-11
   3.3060000e+04  -1.5191678e-10
   3.3120000e+04  -2.0872881e-10
   3.3180000e+04  -2.6282342e-10
   3.3240000e+04  -3.1351062e-10
   3.3300000e+04  -3.6015502e-10
   3.3360000e+04  -4.0218834e-10
   3.3420000e+04  -4.3910610e-10
   3.3480000e+04  -4.7047409e-10
   3.3540000e+04  -4.9592324e-10
   3.3600000e+04  -5.1515365e-10
   3.3660000e+04  -5.2793177e-10
   3.3720000e+04  -5.3409074e-10
   3.3780000e+04  -5.3352840e-10
   3.3840000e+04  -5.2620813e-10
   3.3900000e+04  -5.1215982e-10
   3.3960000e+04  -4.9147946e-10
   3.4020000e+04  -4.6433209e-10
   3.4080000e+04  -4.3095186e-10
   3.4140000e+04  -3.9164508e-10
   3.4200000e+04  -3.4678955e-10
   3.4260000e+04  -2.9683880e-10
   3.4320000e+04  -2.4231708e-10
   3.4380000e+04  -1.8382654e-10
   3.4440000e+04  -1.2203124e-10
   3.4500000e+04  -5.7668147e-11
   3.4560000e+04   8.4716103e-12
   3.4620000e+04   7.5544250e-11
   3.4680000e+04   1.4266475e-10
   3.4740000e+04   2.0891673e-10
   3.4800000e+04   2.7337242e-10
   3.4860000e+04   3.3509849e-10
   3.4920000e+04   3.9317368e-10
   3.4980000e+04   4.4670984e-10
   3.5040000e+04   4.9486730e-10
   3.5100000e+04   5.3686396e-10
   3.5160000e+04   5.7200037e-10
