#   frequency            amplitude spectral density
   7.5971618e-05   1.5953522e-04
   1.5194324e-04   1.5953429e-04
   2.2791485e-04   1.5953275e-04
   3.0388647e-04   1.5953060e-04
   3.7985809e-04   1.5952783e-04
   4.5582971e-04   1.5952445e-04
   5.3180133e-04   1.5952044e-04
   6.0777294e-04   1.5951583e-04
   6.8374456e-04   1.5951059e-04
   7.5971618e-04   1.5950474e-04
   8.3568780e-04   1.5949827e-04
   9.1165942e-04   1.5949118e-04
   9.8763103e-04   1.5948347e-04
   1.0636027e-03   1.5947515e-04
   1.1395743e-03   1.5946620e-04
   1.2155459e-03   1.5945663e-04
   1.2915175e-03   1.5944644e-04
   1.3674891e-03   1.5943563e-04
   1.4434607e-03   1.5942420e-04
   1.5194324e-03   1.5941214e-04
   1.5954040e-03   1.5939946e-04
   1.6713756e-03   1.5938615e-04
   1.7473472e-03   1.5937222e-04
   1.8233188e-03   1.5935765e-04
   1.8992905e-03   1.5934246e-04
   1.9752621e-03   1.5932664e-04
   2.0512337e-03   1.5931019e-04
   2.1272053e-03   1.5929310e-04
   2.2031769e-03   1.5927538e-04
   2.2791485e-03   1.5925703e-04
   2.3551202e-03   1.5923803e-04
   2.4310918e-03   1.5921840e-04
   2.5070634e-03   1.5919813e-04
   2.5830350e-03   1.5917722e-04
   2.6590066e-03   1.5915567e-04
   2.7349783e-03   1.5913347e-04
   2.8109499e-03   1.5911062e-04
   2.8869215e-03   1.5908713e-04
   2.9628931e-03   1.5906299e-04
   3.0388647e-03   1.5903819e-04
   3.1148363e-03   1.5901275e-04
   3.1908080e-03   1.5898664e-04
   3.2667796e-03   1.5895988e-04
   3.3427512e-03   1.5893246e-04
   3.4187228e-03   1.5890438e-04
   3.4946944e-03   1.5887564e-04
   3.5706660e-03   1.5884623e-04
   3.6466377e-03   1.5881615e-04
   3.7226093e-03   1.5878540e-04
   3.7985809e-03   1.5875398e-04
   3.8745525e-03   1.5872188e-04
   3.9505241e-03   1.5868911e-04
   4.0264958e-03   1.5865566e-04
   4.1024674e-03   1.5862152e-04
   4.1784390e-03   1.5858670e-04
   4.2544106e-03   1.5855119e-04
   4.3303822e-03   1.5851499e-04
   4.4063538e-03   1.5847810e-04
   4.4823255e-03   1.5844052e-04
   4.5582971e-03   1.5840223e-04
   4.6342687e-03   1.5836325e-04
   4.7102403e-03   1.5832356e-04
   4.7862119e-03   1.5828316e-04
   4.8621836e-03   1.5824205e-04
   4.9381552e-03   1.5820023e-04
   5.0141268e-03   1.5815770e-04
   5.0900984e-03   1.5811444e-04
   5.1660700e-03   1.5807047e-04
   5.2420416e-03   1.5802577e-04
   5.3180133e-03   1.5798033e-04
   5.3939849e-03   1.5793417e-04
   5.4699565e-03   1.5788727e-04
   5.5459281e-03   1.5783964e-04
   5.6218997e-03   1.5779126e-04
   5.6978714e-03   1.5774214e-04
   5.7738430e-03   1.5769227e-04
   5.8498146e-03   1.5764164e-04
   5.9257862e-03   1.5759026e-04
   6.0017578e-03   1.5753813e-04
   6.0777294e-03   1.5748522e-04
   6.1537011e-03   1.5743156e-04
   6.2296727e-03   1.5737712e-04
   6.3056443e-03   1.5732191e-04
   6.3816159e-03   1.5726592e-04
   6.4575875e-03   1.5720915e-04
   6.5335592e-03   1.5715159e-04
   6.6095308e-03   1.5709325e-04
   6.6855024e-03   1.5703411e-04
   6.7614740e-03   1.5697418e-04
   6.8374456e-03   1.5691345e-04
   6.9134172e-03   1.5685191e-04
   6.9893889e-03   1.5678957e-04
   7.0653605e-03   1.5672641e-04
   7.1413321e-03   1.5666244e-04
   7.2173037e-03   1.5659765e-04
   7.2932753e-03   1.5653203e-04
   7.3692470e-03   1.5646559e-04
   7.4452186e-03   1.5639831e-04
   7.5211902e-03   1.5633021e-04
   7.5971618e-03   1.5626126e-04
   7.6731334e-03   1.5619147e-04
   7.7491050e-03   1.5612083e-04
   7.8250767e-03   1.5604934e-04
   7.9010483e-03   1.5597700e-04
   7.9770199e-03   1.5590380e-04
   8.0529915e-03   1.5582974e-04
   8.1289631e-03   1.5575482e-04
   8.2049348e-03   1.5567902e-04
   8.2809064e-03   1.5560235e-04
   8.3568780e-03   1.5552481e-04
   8.4328496e-03   1.5544638e-04
   8.5088212e-03   1.5536708e-04
   8.5847928e-03   1.5528688e-04
   8.6607645e-03   1.5520580e-04
   8.7367361e-03   1.5512383e-04
   8.8127077e-03   1.5504095e-04
   8.8886793e-03   1.5495718e-04
   8.9646509e-03   1.5487251e-04
   9.0406225e-03   1.5478694e-04
   9.1165942e-03   1.5470046e-04
   9.1925658e-03   1.5461307e-04
   9.2685374e-03   1.5452476e-04
   9.3445090e-03   1.5443555e-04
   9.4204806e-03   1.5434542e-04
   9.4964523e-03   1.5425437e-04
   9.5724239e-03   1.5416240e-04
   9.6483955e-03   1.5406952e-04
   9.7243671e-03   1.5397571e-04
   9.8003387e-03   1.5388098e-04
   9.8763103e-03   1.5378533e-04
   9.9522820e-03   1.5368876e-04
   1.0028254e-02   1.5359127e-04
   1.0104225e-02   1.5349285e-04
   1.0180197e-02   1.5339351e-04
   1.0256168e-02   1.5329326e-04
   1.0332140e-02   1.5319209e-04
   1.0408112e-02   1.5309000e-04
   1.0484083e-02   1.5298700e-04
   1.0560055e-02   1.5288308e-04
   1.0636027e-02   1.5277827e-04
   1.0711998e-02   1.5267254e-04
   1.0787970e-02   1.5256592e-04
   1.0863941e-02   1.5245841e-04
   1.0939913e-02   1.5235001e-04
   1.1015885e-02   1.5224073e-04
   1.1091856e-02   1.5213058e-04
   1.1167828e-02   1.5201956e-04
   1.1243799e-02   1.5190768e-04
   1.1319771e-02   1.5179496e-04
   1.1395743e-02   1.5168140e-04
   1.1471714e-02   1.5156702e-04
   1.1547686e-02   1.5145182e-04
   1.1623658e-02   1.5133583e-04
   1.1699629e-02   1.5121905e-04
   1.1775601e-02   1.5110150e-04
   1.1851572e-02   1.5098321e-04
   1.1927544e-02   1.5086418e-04
   1.2003516e-02   1.5074444e-04
   1.2079487e-02   1.5062401e-04
   1.2155459e-02   1.5050292e-04
   1.2231431e-02   1.5038118e-04
   1.2307402e-02   1.5025883e-04
   1.2383374e-02   1.5013590e-04
   1.2459345e-02   1.5001241e-04
   1.2535317e-02   1.4988839e-04
   1.2611289e-02   1.4976389e-04
   1.2687260e-02   1.4963894e-04
   1.2763232e-02   1.4951358e-04
   1.2839203e-02   1.4938785e-04
   1.2915175e-02   1.4926180e-04
   1.2991147e-02   1.4913548e-04
   1.3067118e-02   1.4900894e-04
   1.3143090e-02   1.4888223e-04
   1.3219062e-02   1.4875542e-04
   1.3295033e-02   1.4862856e-04
   1.3371005e-02   1.4850173e-04
   1.3446976e-02   1.4837499e-04
   1.3522948e-02   1.4824842e-04
   1.3598920e-02   1.4812210e-04
   1.3674891e-02   1.4799612e-04
   1.3750863e-02   1.4787056e-04
   1.3826834e-02   1.4774553e-04
   1.3902806e-02   1.4762113e-04
   1.3978778e-02   1.4749745e-04
   1.4054749e-02   1.4737464e-04
   1.4130721e-02   1.4725279e-04
   1.4206693e-02   1.4713205e-04
   1.4282664e-02   1.4701256e-04
   1.4358636e-02   1.4689446e-04
   1.4434607e-02   1.4677792e-04
   1.4510579e-02   1.4666309e-04
   1.4586551e-02   1.4655015e-04
   1.4662522e-02   1.4643931e-04
   1.4738494e-02   1.4633074e-04
   1.4814466e-02   1.4622468e-04
   1.4890437e-02   1.4612134e-04
   1.4966409e-02   1.4602097e-04
   1.5042380e-02   1.4592382e-04
   1.5118352e-02   1.4583016e-04
   1.5194324e-02   1.4574029e-04
   1.5270295e-02   1.4565451e-04
   1.5346267e-02   1.4557315e-04
   1.5422238e-02   1.4549655e-04
   1.5498210e-02   1.4542508e-04
   1.5574182e-02   1.4535915e-04
   1.5650153e-02   1.4529915e-04
   1.5726125e-02   1.4524555e-04
   1.5802097e-02   1.4519882e-04
   1.5878068e-02   1.4515945e-04
   1.5954040e-02   1.4512798e-04
   1.6030011e-02   1.4510499e-04
   1.6105983e-02   1.4509108e-04
   1.6181955e-02   1.4508689e-04
   1.6257926e-02   1.4509313e-04
   1.6333898e-02   1.4511050e-04
   1.6409870e-02   1.4513981e-04
   1.6485841e-02   1.4518188e-04
   1.6561813e-02   1.4523760e-04
   1.6637784e-02   1.4530791e-04
   1.6713756e-02   1.4539382e-04
   1.6789728e-02   1.4549639e-04
   1.6865699e-02   1.4561679e-04
   1.6941671e-02   1.4575622e-04
   1.7017642e-02   1.4591599e-04
   1.7093614e-02   1.4609748e-04
   1.7169586e-02   1.4630217e-04
   1.7245557e-02   1.4653166e-04
   1.7321529e-02   1.4678761e-04
   1.7397501e-02   1.4707183e-04
   1.7473472e-02   1.4738624e-04
   1.7549444e-02   1.4773289e-04
   1.7625415e-02   1.4811397e-04
   1.7701387e-02   1.4853182e-04
   1.7777359e-02   1.4898894e-04
   1.7853330e-02   1.4948798e-04
   1.7929302e-02   1.5003181e-04
   1.8005273e-02   1.5062346e-04
   1.8081245e-02   1.5126619e-04
   1.8157217e-02   1.5196348e-04
   1.8233188e-02   1.5271905e-04
   1.8309160e-02   1.5353687e-04
   1.8385132e-02   1.5442119e-04
   1.8461103e-02   1.5537657e-04
   1.8537075e-02   1.5640788e-04
   1.8613046e-02   1.5752031e-04
   1.8689018e-02   1.5871946e-04
   1.8764990e-02   1.6001129e-04
   1.8840961e-02   1.6140221e-04
   1.8916933e-02   1.6289907e-04
   1.8992905e-02   1.6450924e-04
   1.9068876e-02   1.6624062e-04
   1.9144848e-02   1.6810167e-04
   1.9220819e-02   1.7010152e-04
   1.9296791e-02   1.7224995e-04
   1.9372763e-02   1.7455752e-04
   1.9448734e-02   1.7703559e-04
   1.9524706e-02   1.7969642e-04
   1.9600677e-02   1.8255325e-04
   1.9676649e-02   1.8562039e-04
   1.9752621e-02   1.8891335e-04
   1.9828592e-02   1.9244898e-04
   1.9904564e-02   1.9624555e-04
   1.9980536e-02   2.0032300e-04
   2.0056507e-02   2.0470309e-04
   2.0132479e-02   2.0940960e-04
   2.0208450e-02   2.1446864e-04
   2.0284422e-02   2.1990891e-04
   2.0360394e-02   2.2576208e-04
   2.0436365e-02   2.3206318e-04
   2.0512337e-02   2.3885106e-04
   2.0588308e-02   2.4616903e-04
   2.0664280e-02   2.5406546e-04
   2.0740252e-02   2.6259464e-04
   2.0816223e-02   2.7181771e-04
   2.0892195e-02   2.8180384e-04
   2.0968167e-02   2.9263163e-04
   2.1044138e-02   3.0439083e-04
   2.1120110e-02   3.1718442e-04
   2.1196081e-02   3.3113122e-04
   2.1272053e-02   3.4636911e-04
   2.1348025e-02   3.6305903e-04
   2.1423996e-02   3.8139012e-04
   2.1499968e-02   4.0158625e-04
   2.1575940e-02   4.2391435e-04
   2.1651911e-02   4.4869548e-04
   2.1727883e-02   4.7631921e-04
   2.1803854e-02   5.0726309e-04
   2.1879826e-02   5.4211898e-04
   2.1955798e-02   5.8162950e-04
   2.2031769e-02   6.2673936e-04
   2.2107741e-02   6.7866913e-04
   2.2183712e-02   7.3902398e-04
   2.2259684e-02   8.0995809e-04
   2.2335656e-02   8.9443135e-04
   2.2411627e-02   9.9662497e-04
   2.2487599e-02   1.1226438e-03
   2.2563571e-02   1.2817663e-03
   2.2639542e-02   1.4888150e-03
   2.2715514e-02   1.7690239e-03
   2.2791485e-02   2.1691276e-03
   2.2867457e-02   2.7864576e-03
   2.2943429e-02   3.8628252e-03
   2.3019400e-02   6.2107953e-03
   2.3095372e-02   1.5321696e-02
   2.3171344e-02   3.5255998e-02
   2.3247315e-02   8.3403078e-03
   2.3323287e-02   4.7764423e-03
   2.3399258e-02   3.3695947e-03
   2.3475230e-02   2.6167127e-03
   2.3551202e-02   2.1479868e-03
   2.3627173e-02   1.8282095e-03
   2.3703145e-02   1.5962060e-03
   2.3779116e-02   1.4202646e-03
   2.3855088e-02   1.2823055e-03
   2.3931060e-02   1.1712667e-03
   2.4007031e-02   1.0800002e-03
   2.4083003e-02   1.0036818e-03
   2.4158975e-02   9.3893773e-04
   2.4234946e-02   8.8333755e-04
   2.4310918e-02   8.3508624e-04
   2.4386889e-02   7.9282917e-04
   2.4462861e-02   7.5552494e-04
   2.4538833e-02   7.2235976e-04
   2.4614804e-02   6.9268855e-04
   2.4690776e-02   6.6599335e-04
   2.4766747e-02   6.4185352e-04
   2.4842719e-02   6.1992390e-04
   2.4918691e-02   5.9991863e-04
   2.4994662e-02   5.8159895e-04
   2.5070634e-02   5.6476385e-04
   2.5146606e-02   5.4924298e-04
   2.5222577e-02   5.3489093e-04
   2.5298549e-02   5.2158291e-04
   2.5374520e-02   5.0921117e-04
   2.5450492e-02   4.9768225e-04
   2.5526464e-02   4.8691461e-04
   2.5602435e-02   4.7683688e-04
   2.5678407e-02   4.6738625e-04
   2.5754379e-02   4.5850728e-04
   2.5830350e-02   4.5015082e-04
   2.5906322e-02   4.4227316e-04
   2.5982293e-02   4.3483529e-04
   2.6058265e-02   4.2780230e-04
   2.6134237e-02   4.2114285e-04
   2.6210208e-02   4.1482872e-04
   2.6286180e-02   4.0883443e-04
   2.6362151e-02   4.0313694e-04
   2.6438123e-02   3.9771533e-04
   2.6514095e-02   3.9255060e-04
   2.6590066e-02   3.8762543e-04
   2.6666038e-02   3.8292401e-04
   2.6742010e-02   3.7843188e-04
   2.6817981e-02   3.7413576e-04
   2.6893953e-02   3.7002350e-04
   2.6969924e-02   3.6608388e-04
   2.7045896e-02   3.6230661e-04
   2.7121868e-02   3.5868214e-04
   2.7197839e-02   3.5520170e-04
   2.7273811e-02   3.5185712e-04
   2.7349783e-02   3.4864087e-04
   2.7425754e-02   3.4554593e-04
   2.7501726e-02   3.4256579e-04
   2.7577697e-02   3.3969440e-04
   2.7653669e-02   3.3692610e-04
   2.7729641e-02   3.3425562e-04
   2.7805612e-02   3.3167806e-04
   2.7881584e-02   3.2918880e-04
   2.7957555e-02   3.2678355e-04
   2.8033527e-02   3.2445826e-04
   2.8109499e-02   3.2220917e-04
   2.8185470e-02   3.2003271e-04
   2.8261442e-02   3.1792555e-04
   2.8337414e-02   3.1588455e-04
   2.8413385e-02   3.1390675e-04
   2.8489357e-02   3.1198938e-04
   2.8565328e-02   3.1012981e-04
   2.8641300e-02   3.0832555e-04
   2.8717272e-02   3.0657428e-04
   2.8793243e-02   3.0487378e-04
   2.8869215e-02   3.0322195e-04
   2.8945186e-02   3.0161683e-04
   2.9021158e-02   3.0005652e-04
   2.9097130e-02   2.9853926e-04
   2.9173101e-02   2.9706335e-04
   2.9249073e-02   2.9562720e-04
   2.9325045e-02   2.9422929e-04
   2.9401016e-02   2.9286817e-04
   2.9476988e-02   2.9154246e-04
   2.9552959e-02   2.9025086e-04
   2.9628931e-02   2.8899212e-04
   2.9704903e-02   2.8776506e-04
   2.9780874e-02   2.8656855e-04
   2.9856846e-02   2.8540151e-04
   2.9932818e-02   2.8426290e-04
   3.0008789e-02   2.8315176e-04
   3.0084761e-02   2.8206713e-04
   3.0160732e-02   2.8100813e-04
   3.0236704e-02   2.7997389e-04
   3.0312676e-02   2.7896360e-04
   3.0388647e-02   2.7797646e-04
   3.0464619e-02   2.7701174e-04
   3.0540590e-02   2.7606871e-04
   3.0616562e-02   2.7514668e-04
   3.0692534e-02   2.7424499e-04
   3.0768505e-02   2.7336301e-04
   3.0844477e-02   2.7250013e-04
   3.0920449e-02   2.7165576e-04
   3.0996420e-02   2.7082934e-04
   3.1072392e-02   2.7002034e-04
   3.1148363e-02   2.6922823e-04
   3.1224335e-02   2.6845253e-04
   3.1300307e-02   2.6769275e-04
   3.1376278e-02   2.6694843e-04
   3.1452250e-02   2.6621912e-04
   3.1528221e-02   2.6550441e-04
   3.1604193e-02   2.6480388e-04
   3.1680165e-02   2.6411714e-04
   3.1756136e-02   2.6344380e-04
   3.1832108e-02   2.6278350e-04
   3.1908080e-02   2.6213588e-04
   3.1984051e-02   2.6150060e-04
   3.2060023e-02   2.6087733e-04
   3.2135994e-02   2.6026576e-04
   3.2211966e-02   2.5966557e-04
   3.2287938e-02   2.5907648e-04
   3.2363909e-02   2.5849818e-04
   3.2439881e-02   2.5793041e-04
   3.2515853e-02   2.5737290e-04
   3.2591824e-02   2.5682538e-04
   3.2667796e-02   2.5628762e-04
   3.2743767e-02   2.5575936e-04
   3.2819739e-02   2.5524038e-04
   3.2895711e-02   2.5473044e-04
   3.2971682e-02   2.5422932e-04
   3.3047654e-02   2.5373683e-04
   3.3123625e-02   2.5325274e-04
   3.3199597e-02   2.5277685e-04
   3.3275569e-02   2.5230899e-04
   3.3351540e-02   2.5184895e-04
   3.3427512e-02   2.5139656e-04
   3.3503484e-02   2.5095164e-04
   3.3579455e-02   2.5051402e-04
   3.3655427e-02   2.5008354e-04
   3.3731398e-02   2.4966003e-04
   3.3807370e-02   2.4924334e-04
   3.3883342e-02   2.4883331e-04
   3.3959313e-02   2.4842981e-04
   3.4035285e-02   2.4803268e-04
   3.4111257e-02   2.4764180e-04
   3.4187228e-02   2.4725702e-04
   3.4263200e-02   2.4687821e-04
   3.4339171e-02   2.4650524e-04
   3.4415143e-02   2.4613801e-04
   3.4491115e-02   2.4577637e-04
   3.4567086e-02   2.4542022e-04
   3.4643058e-02   2.4506944e-04
   3.4719029e-02   2.4472393e-04
   3.4795001e-02   2.4438357e-04
   3.4870973e-02   2.4404826e-04
   3.4946944e-02   2.4371790e-04
   3.5022916e-02   2.4339239e-04
   3.5098888e-02   2.4307163e-04
   3.5174859e-02   2.4275553e-04
   3.5250831e-02   2.4244400e-04
   3.5326802e-02   2.4213695e-04
   3.5402774e-02   2.4183429e-04
   3.5478746e-02   2.4153594e-04
   3.5554717e-02   2.4124181e-04
   3.5630689e-02   2.4095183e-04
   3.5706660e-02   2.4066591e-04
   3.5782632e-02   2.4038398e-04
   3.5858604e-02   2.4010598e-04
   3.5934575e-02   2.3983181e-04
   3.6010547e-02   2.3956142e-04
   3.6086519e-02   2.3929473e-04
   3.6162490e-02   2.3903168e-04
   3.6238462e-02   2.3877220e-04
   3.6314433e-02   2.3851622e-04
   3.6390405e-02   2.3826369e-04
   3.6466377e-02   2.3801455e-04
   3.6542348e-02   2.3776873e-04
   3.6618320e-02   2.3752617e-04
   3.6694292e-02   2.3728683e-04
   3.6770263e-02   2.3705064e-04
   3.6846235e-02   2.3681754e-04
   3.6922206e-02   2.3658750e-04
   3.6998178e-02   2.3636045e-04
   3.7074150e-02   2.3613635e-04
   3.7150121e-02   2.3591514e-04
   3.7226093e-02   2.3569678e-04
   3.7302064e-02   2.3548122e-04
   3.7378036e-02   2.3526841e-04
   3.7454008e-02   2.3505832e-04
   3.7529979e-02   2.3485089e-04
   3.7605951e-02   2.3464609e-04
   3.7681923e-02   2.3444387e-04
   3.7757894e-02   2.3424418e-04
   3.7833866e-02   2.3404700e-04
   3.7909837e-02   2.3385228e-04
   3.7985809e-02   2.3365999e-04
   3.8061781e-02   2.3347008e-04
   3.8137752e-02   2.3328252e-04
   3.8213724e-02   2.3309727e-04
   3.8289696e-02   2.3291430e-04
   3.8365667e-02   2.3273358e-04
   3.8441639e-02   2.3255507e-04
   3.8517610e-02   2.3237874e-04
   3.8593582e-02   2.3220455e-04
   3.8669554e-02   2.3203248e-04
   3.8745525e-02   2.3186250e-04
   3.8821497e-02   2.3169457e-04
   3.8897468e-02   2.3152867e-04
   3.8973440e-02   2.3136476e-04
   3.9049412e-02   2.3120283e-04
   3.9125383e-02   2.3104284e-04
   3.9201355e-02   2.3088477e-04
   3.9277327e-02   2.3072859e-04
   3.9353298e-02   2.3057427e-04
   3.9429270e-02   2.3042180e-04
   3.9505241e-02   2.3027114e-04
   3.9581213e-02   2.3012227e-04
   3.9657185e-02   2.2997518e-04
   3.9733156e-02   2.2982983e-04
   3.9809128e-02   2.2968621e-04
   3.9885099e-02   2.2954430e-04
   3.9961071e-02   2.2940407e-04
   4.0037043e-02   2.2926550e-04
   4.0113014e-02   2.2912858e-04
   4.0188986e-02   2.2899329e-04
   4.0264958e-02   2.2885960e-04
   4.0340929e-02   2.2872750e-04
   4.0416901e-02   2.2859698e-04
   4.0492872e-02   2.2846800e-04
   4.0568844e-02   2.2834057e-04
   4.0644816e-02   2.2821466e-04
   4.0720787e-02   2.2809026e-04
   4.0796759e-02   2.2796736e-04
   4.0872731e-02   2.2784593e-04
   4.0948702e-02   2.2772597e-04
   4.1024674e-02   2.2760746e-04
   4.1100645e-02   2.2749039e-04
   4.1176617e-02   2.2737476e-04
   4.1252589e-02   2.2726054e-04
   4.1328560e-02   2.2714773e-04
   4.1404532e-02   2.2703632e-04
   4.1480503e-02   2.2692630e-04
   4.1556475e-02   2.2681766e-04
   4.1632447e-02   2.2671040e-04
   4.1708418e-02   2.2660451e-04
   4.1784390e-02   2.2649998e-04
   4.1860362e-02   2.2639681e-04
   4.1936333e-02   2.2629499e-04
   4.2012305e-02   2.2619453e-04
   4.2088276e-02   2.2609541e-04
   4.2164248e-02   2.2599765e-04
   4.2240220e-02   2.2590124e-04
   4.2316191e-02   2.2580618e-04
   4.2392163e-02   2.2571248e-04
   4.2468134e-02   2.2562014e-04
   4.2544106e-02   2.2552917e-04
   4.2620078e-02   2.2543958e-04
   4.2696049e-02   2.2535138e-04
   4.2772021e-02   2.2526458e-04
   4.2847993e-02   2.2517920e-04
   4.2923964e-02   2.2509526e-04
   4.2999936e-02   2.2501277e-04
   4.3075907e-02   2.2493177e-04
   4.3151879e-02   2.2485228e-04
   4.3227851e-02   2.2477434e-04
   4.3303822e-02   2.2469797e-04
   4.3379794e-02   2.2462323e-04
   4.3455766e-02   2.2455017e-04
   4.3531737e-02   2.2447884e-04
   4.3607709e-02   2.2440930e-04
   4.3683680e-02   2.2434163e-04
   4.3759652e-02   2.2427591e-04
   4.3835624e-02   2.2421223e-04
   4.3911595e-02   2.2415071e-04
   4.3987567e-02   2.2409148e-04
   4.4063538e-02   2.2403467e-04
   4.4139510e-02   2.2398046e-04
   4.4215482e-02   2.2392903e-04
   4.4291453e-02   2.2388063e-04
   4.4367425e-02   2.2383551e-04
   4.4443397e-02   2.2379399e-04
   4.4519368e-02   2.2375645e-04
